"Time (s)","Acceleration x (m/s^2)","Acceleration y (m/s^2)","Acceleration z (m/s^2)","Absolute acceleration (m/s^2)"
3.748177400E-2,2.833101988E0,3.325425386E0,9.294919968E0,1.027036796E1
3.995245100E-2,2.694318295E0,3.325425386E0,9.294919968E0,1.023295374E1
4.242312800E-2,2.603390932E0,3.368496180E0,9.366703987E0,1.028880724E1
4.489375300E-2,2.579462767E0,3.406781197E0,9.443274498E0,1.036509621E1
4.738453400E-2,2.545963287E0,3.473780155E0,9.524630547E0,1.045311746E1
4.985568000E-2,2.459821701E0,3.564707518E0,9.586843491E0,1.051976381E1
5.232687800E-2,2.411965132E0,3.598206997E0,9.534201622E0,1.047213779E1
5.479802400E-2,2.320439816E0,3.703491211E0,9.515059471E0,1.047075187E1
5.726917000E-2,2.224726915E0,3.832703590E0,9.467203140E0,1.045308385E1
5.974031600E-2,2.186441660E0,3.918845177E0,9.328418732E0,1.035167961E1
6.221151400E-2,2.181656122E0,3.894917011E0,9.175278664E0,1.020371209E1
6.468265900E-2,2.277369022E0,3.875774384E0,9.031708717E0,1.008859748E1
6.717234700E-2,2.364108801E0,3.827918053E0,8.859425545E0,9.936366943E0
6.964401400E-2,2.469393015E0,3.736990690E0,8.773283958E0,9.850559004E0
7.211562800E-2,2.579462767E0,3.689134359E0,8.629714966E0,9.733207122E0
7.458724300E-2,2.679961443E0,3.492922783E0,8.572287560E0,9.636743065E0
7.705885700E-2,2.828316450E0,3.301496983E0,8.523832321E0,9.568436325E0
7.953052400E-2,2.962314367E0,3.253640652E0,8.432905197E0,9.511854392E0
8.200213900E-2,3.105883837E0,3.277568817E0,8.466404915E0,9.595258409E0
8.447375300E-2,3.182454109E0,3.296711445E0,8.601000786E0,9.745436626E0
8.696031600E-2,3.182454109E0,3.325425386E0,8.682356834E0,9.826992844E0
8.943229500E-2,3.129812002E0,3.334996462E0,8.811569214E0,9.927823356E0
9.190432600E-2,3.062813044E0,3.311068296E0,8.897710800E0,9.975633037E0
9.437630500E-2,2.986242771E0,3.239283562E0,8.950352669E0,9.975941899E0
9.684833700E-2,2.895315409E0,3.224926710E0,8.940781593E0,9.935823021E0
9.932031600E-2,2.799602509E0,3.210569859E0,8.873783112E0,9.843249450E0
1.017923470E-1,2.703889608E0,3.153141975E0,8.811569214E0,9.741512990E0
1.042643260E-1,2.723032236E0,3.090330362E0,8.725427628E0,9.648737409E0
1.067482840E-1,2.713460922E0,3.023331404E0,8.701499939E0,9.603098674E0
1.092205240E-1,2.737389088E0,3.037688255E0,8.663214684E0,9.579777534E0
1.116928680E-1,2.794816732E0,3.023331404E0,8.677571297E0,9.604778860E0
1.141651590E-1,2.823530674E0,3.047259569E0,8.629714966E0,9.577583032E0
1.166374510E-1,2.866601467E0,3.028116941E0,8.533403397E0,9.497677069E0
1.191097430E-1,2.928814888E0,2.975475073E0,8.408976555E0,9.388412819E0
1.215820340E-1,3.005385160E0,2.937189817E0,8.318049431E0,9.319300957E0
1.240543780E-1,3.125026464E0,2.961117983E0,8.184051514E0,9.247308219E0
1.265362010E-1,3.129812002E0,2.889333248E0,8.069195747E0,9.124466549E0
1.290087530E-1,3.120240688E0,2.860619545E0,7.772486210E0,8.850456938E0
1.314813050E-1,3.038884640E0,2.798406124E0,7.734200954E0,8.768338559E0
1.339538570E-1,3.120240688E0,2.736192703E0,7.930412292E0,8.950647551E0
1.364263570E-1,3.211168051E0,2.721835852E0,7.930412292E0,8.978386814E0
1.388989090E-1,3.182454109E0,2.755335331E0,7.868198872E0,8.923476925E0
1.413714620E-1,3.067598581E0,2.798406124E0,7.801199913E0,8.837418060E0
1.438440140E-1,2.971885681E0,2.884547710E0,7.863413334E0,8.887406216E0
1.463241180E-1,2.847458839E0,2.985046148E0,7.911269665E0,8.922259246E0
1.487968780E-1,2.723032236E0,3.008974552E0,8.011768341E0,8.980938947E0
1.512696390E-1,2.627319336E0,3.075973511E0,8.088338852E0,9.043541636E0
1.537423470E-1,2.522035122E0,3.177070379E0,8.069195747E0,9.031409489E0
1.562150550E-1,2.421536446E0,3.191427231E0,8.073982239E0,9.013225600E0
1.586878160E-1,2.296511650E0,3.215355396E0,8.164909363E0,9.070734313E0
1.611605760E-1,2.219941139E0,3.224926710E0,8.150551796E0,9.042111785E0
1.636332840E-1,2.162513494E0,3.229712248E0,8.145766258E0,9.025575536E0
1.661121390E-1,2.071586132E0,3.196212769E0,8.126624107E0,8.974924208E0
1.685850030E-1,1.961516380E0,3.196212769E0,8.112266541E0,8.937124314E0
1.710579200E-1,1.889731646E0,3.205784082E0,8.121838570E0,8.933778541E0
1.735307840E-1,1.851446509E0,3.205784082E0,8.126624107E0,8.930113389E0
1.760036490E-1,1.841875196E0,3.157927752E0,8.078767776E0,8.867440482E0
1.784765660E-1,1.717448473E0,3.124428272E0,8.164909363E0,8.909401001E0
1.809494820E-1,1.727019787E0,3.119044304E0,8.193622589E0,8.935686087E0
1.834223470E-1,1.707877159E0,3.032902718E0,8.193622589E0,8.902291526E0
1.859001590E-1,1.674377680E0,3.008974552E0,8.274978638E0,8.962853336E0
1.883731280E-1,1.631306887E0,2.994617462E0,8.284550667E0,8.958943892E0
1.908461490E-1,1.645663738E0,2.951546669E0,8.370692253E0,9.027088438E0
1.933191180E-1,1.583450437E0,2.965903759E0,8.408976555E0,9.056201582E0
1.957921910E-1,1.506880045E0,2.946761131E0,8.485547066E0,9.108161046E0
1.982651590E-1,1.444666624E0,2.927618504E0,8.562117577E0,9.163398341E0
2.007381800E-1,1.401595831E0,2.927618504E0,8.658429146E0,9.246827361E0
2.032112010E-1,1.387238979E0,2.956332445E0,8.663214684E0,9.258273174E0
2.056881280E-1,1.334596872E0,2.980260611E0,8.773283958E0,9.361282686E0
2.081612530E-1,1.295713425E0,2.975475073E0,8.902496338E0,9.475587910E0
2.106343780E-1,1.243071318E0,3.052045345E0,8.892925262E0,9.483898292E0
2.131074510E-1,1.166501045E0,3.061616659E0,8.840283394E0,9.427875251E0
2.155805760E-1,1.094716311E0,3.042474031E0,8.749356270E0,9.327716075E0
2.180537010E-1,9.750752449E-1,2.970689297E0,8.720642090E0,9.264198027E0
2.205267740E-1,6.113662124E-1,2.884547710E0,8.644071579E0,9.133146096E0
2.229998990E-1,5.156532526E-1,2.726621389E0,8.634500504E0,9.069452102E0
2.254760450E-1,4.965106845E-1,2.635694027E0,8.567501068E0,8.977498561E0
2.279492220E-1,4.103690982E-1,2.511267424E0,8.322834969E0,8.703128678E0
2.304224510E-1,4.821537733E-1,2.396411896E0,8.102695465E0,8.463387976E0
2.328956280E-1,6.305087805E-1,2.401197433E0,7.973483086E0,8.351031251E0
2.353688050E-1,9.511470199E-1,2.377269268E0,7.820342541E0,8.228842402E0
2.378419820E-1,1.152144074E0,2.429911375E0,7.729415417E0,8.183872430E0
2.403151590E-1,1.329811215E0,2.458625317E0,7.734200954E0,8.223813028E0
2.427883370E-1,1.535593987E0,2.482553482E0,7.782057285E0,8.311530321E0
2.452640660E-1,1.703091502E0,2.472982168E0,7.849056244E0,8.403799461E0
2.477373470E-1,1.894517303E0,2.482553482E0,7.887341499E0,8.483066870E0
2.502105760E-1,2.133799553E0,2.415554523E0,7.916055679E0,8.547042863E0
2.526838570E-1,2.196012974E0,2.338984251E0,7.954340458E0,8.576995536E0
2.551570870E-1,2.148156643E0,2.233700037E0,8.073982239E0,8.648305152E0
2.576303160E-1,2.119442701E0,2.133201361E0,8.207980156E0,8.741482921E0
2.601035970E-1,1.990230203E0,2.085345030E0,8.313263893E0,8.798865649E0
2.625768260E-1,1.861017823E0,1.993819475E0,8.404191017E0,8.835673720E0
2.650520870E-1,1.750947952E0,1.907677889E0,8.519046783E0,8.903887452E0
2.675254200E-1,1.640878081E0,1.831107497E0,8.773283958E0,9.111308740E0
2.699987010E-1,1.626521230E0,1.697109461E0,9.036494255E0,9.337236221E0
2.724720340E-1,1.602592945E0,1.524826288E0,9.323633194E0,9.582459773E0
2.749453160E-1,1.593021631E0,1.390828133E0,9.620942116E0,9.850616631E0
2.774185970E-1,1.559522152E0,1.223330617E0,9.888937950E0,1.008562050E1
2.798919300E-1,1.478166223E0,1.051047325E0,1.015214825E1,1.031289435E1
2.823652120E-1,1.348953724E0,9.547362328E-1,1.029093170E1,1.042278623E1
2.848400550E-1,1.195214868E0,8.733802438E-1,1.031964588E1,1.042527807E1
2.873133890E-1,9.798609018E-1,9.308080077E-1,1.033400249E1,1.042200261E1
2.897867220E-1,7.549355626E-1,1.002592683E0,1.026221848E1,1.033867728E1
2.922600550E-1,6.065805554E-1,1.098903775E0,1.016650486E1,1.024369809E1
2.947333890E-1,4.151547253E-1,1.189831018E0,1.007079220E1,1.014933036E1
2.972067220E-1,2.667997181E-1,1.309472203E0,1.000857925E1,1.009740354E1
2.996800550E-1,3.433700502E-1,1.505683661E0,1.020000458E1,1.031625318E1
3.021533890E-1,2.566302419E-1,1.596610904E0,9.802796364E0,9.935282684E0
3.046280760E-1,6.520441920E-2,1.553540111E0,9.261420250E0,9.391040599E0
3.071014090E-1,2.991028363E-3,1.476969719E0,9.069993973E0,9.189463486E0
3.095747950E-1,-9.750752151E-2,1.433898926E0,8.950352669E0,9.065008921E0
3.120481800E-1,-1.501496136E-1,1.376471281E0,8.825926781E0,8.933879428E0
3.145215660E-1,-1.262213886E-1,1.347757339E0,8.840283394E0,8.943321093E0
3.169948990E-1,2.667997181E-1,1.218544960E0,9.223134995E0,9.307107662E0
3.194682840E-1,2.327020019E-1,1.376471281E0,9.156135559E0,9.261945896E0
3.219416700E-1,-1.136590727E-2,1.654038668E0,8.878568649E0,9.031331815E0
3.244160970E-1,-1.022931710E-1,1.902892232E0,8.806783676E0,9.010599395E0
3.268894820E-1,1.848455518E-1,2.195414782E0,9.452845573E0,9.706199224E0
3.293628680E-1,6.831508875E-1,2.468196630E0,1.036750221E1,1.067912880E1
3.318362530E-1,3.816552162E-1,2.736192703E0,9.611370087E0,1.000054229E1
3.343096910E-1,1.704886109E-1,2.913261652E0,9.079565048E0,9.537015324E0
3.367830760E-1,1.256231871E-2,2.999403238E0,8.821140289E0,9.317139776E0
3.392564620E-1,-1.549352705E-1,2.965903759E0,8.634500504E0,9.131001533E0
3.417298470E-1,-2.458625287E-1,2.745764017E0,8.389834404E0,8.831137512E0
3.442040660E-1,-2.841476798E-1,2.396411896E0,8.318049431E0,8.661032052E0
3.466774510E-1,-2.506481707E-1,1.945963025E0,8.255836487E0,8.485778261E0
3.491508890E-1,-1.788634956E-1,1.534397483E0,8.227122307E0,8.370896561E0
3.516242740E-1,-1.310070455E-1,1.113260746E0,8.164909363E0,8.241496056E0
3.540977120E-1,-1.794616925E-3,8.255237937E-1,7.983054638E0,8.025624842E0
3.565711490E-1,3.649054468E-2,7.968099117E-1,7.796414375E0,7.837111375E0
3.590445340E-1,-2.362912297E-1,1.285543919E0,7.111468792E0,7.230590923E0
3.615179720E-1,-2.650051117E-1,1.314257860E0,6.728617191E0,6.860888480E0
3.639920870E-1,-1.214357466E-1,1.079761267E0,6.790830612E0,6.877209568E0
3.664655240E-1,-7.357929647E-2,8.733802438E-1,6.814758778E0,6.870891075E0
3.689389620E-1,-1.022931710E-1,6.197410822E-1,6.790830612E0,6.819818422E0
3.714123470E-1,-1.405783296E-1,3.804588020E-1,6.699903488E0,6.712169390E0
3.738857840E-1,-2.554338276E-1,1.124626622E-1,6.608976364E0,6.614866807E0
3.763592220E-1,-4.229314029E-1,-8.434699476E-2,6.474380016E0,6.488727301E0
3.788326590E-1,-6.334998012E-1,-2.183450609E-1,6.416952133E0,6.451842469E0
3.813060970E-1,-7.004988194E-1,-2.901297510E-1,6.311667919E0,6.357045366E0
3.837801070E-1,-4.277170599E-1,-2.518445849E-1,6.187241077E0,6.207118472E0
3.862535450E-1,4.127619043E-2,-1.226321608E-1,5.837889194E0,5.839322959E0
3.887269820E-1,-1.794616925E-3,2.392822644E-3,5.286941528E0,5.286942374E0
3.912004200E-1,-1.166501045E-1,7.896314561E-2,4.765306473E0,4.767387986E0
3.936739090E-1,-2.123630047E-1,6.460621208E-2,4.487739086E0,4.493225358E0
3.961473470E-1,-4.516452849E-1,1.746760458E-1,3.869792461E0,3.899972933E0
3.986207840E-1,-5.330012441E-1,2.177468538E-1,3.577867985E0,3.623898913E0
4.010942220E-1,-6.382854581E-1,1.842473447E-1,3.266202927E0,3.333082202E0
4.035681280E-1,-7.920243144E-1,1.842473447E-1,2.892922640E0,3.005037604E0
4.060415660E-1,-8.829515576E-1,1.172483116E-1,2.677568436E0,2.821829787E0
4.085150030E-1,-9.978070259E-1,5.982056633E-2,2.476571321E0,2.670693332E0
4.109884930E-1,-1.170090318E0,-9.870393574E-2,2.562713146E0,2.818927542E0
4.134619300E-1,-1.337587833E0,-2.422732860E-1,2.658426046E0,2.985810878E0
4.159354200E-1,-1.476371527E0,-3.523431420E-1,2.821137905E0,3.203535181E0
4.184088570E-1,-1.663011789E0,-5.533402562E-1,3.098705292E0,3.560023614E0
4.208823470E-1,-1.888535261E0,-7.112665176E-1,3.223132133E0,3.802768234E0
4.233560970E-1,-2.065604210E0,-8.691928387E-1,3.405584812E0,4.076791000E0
4.258295340E-1,-2.276172638E0,-9.984052777E-1,3.601796389E0,4.376152671E0
4.283030240E-1,-2.515454769E0,-1.171286702E0,3.898506403E0,4.785162213E0
4.307764620E-1,-2.673381090E0,-1.467996716E0,4.003790379E0,5.033122113E0
4.332499510E-1,-2.884547710E0,-1.664208174E0,4.223930359E0,5.378828127E0
4.357233890E-1,-3.018545866E0,-1.817348838E0,4.593023300E0,5.788802897E0
4.381968780E-1,-3.085544825E0,-1.903490424E0,4.846662045E0,6.052602385E0
4.406703680E-1,-3.142972469E0,-1.841277003E0,5.277370453E0,6.412426673E0
4.431441180E-1,-3.229114056E0,-1.759921074E0,5.813961029E0,6.879436214E0
4.456175550E-1,-3.272184849E0,-1.755135417E0,6.378666878E0,7.380723891E0
4.480910450E-1,-3.358326674E0,-1.783849239E0,6.867401123E0,7.849947410E0
4.505645340E-1,-3.458825111E0,-1.841277003E0,7.417750359E0,8.389087706E0
4.530380240E-1,-3.497110367E0,-1.922633052E0,7.805985451E0,8.766966843E0
4.555114620E-1,-3.521038532E0,-1.889133453E0,8.150551796E0,9.077336180E0
4.579849510E-1,-3.559323788E0,-1.960918188E0,8.562117577E0,9.477544163E0
4.604584410E-1,-3.525824070E0,-2.018345833E0,8.797212601E0,9.690000248E0
4.629321390E-1,-3.611965895E0,-1.807777524E0,8.979066849E0,9.845709658E0
4.654055760E-1,-3.631108284E0,-1.755135417E0,9.352347374E0,1.018488336E1
4.678790660E-1,-3.544966698E0,-1.869990945E0,9.788438797E0,1.057720138E1
4.703525550E-1,-3.477967739E0,-1.960918188E0,1.016650486E1,1.092242101E1
4.728260450E-1,-3.439682484E0,-2.003988981E0,1.042971611E1,1.116361794E1
4.752995340E-1,-3.454039574E0,-2.003988981E0,1.062592697E1,1.135150586E1
4.777729720E-1,-3.458825111E0,-1.984846354E0,1.082273674E1,1.153406766E1
4.802464620E-1,-3.516252756E0,-1.951346874E0,1.089930725E1,1.161751637E1
4.827201590E-1,-3.554538012E0,-1.855633974E0,1.102373409E1,1.173033807E1
4.851936490E-1,-3.564109325E0,-1.932204247E0,1.118166065E1,1.189394062E1
4.876670870E-1,-3.425325632E0,-2.363510609E0,1.144008541E1,1.217352013E1
4.901405760E-1,-3.674179077E0,-1.908276081E0,1.059242725E1,1.137280197E1
4.926140660E-1,-3.879961967E0,-1.645065546E0,1.018086243E1,1.101863446E1
4.950875550E-1,-4.062414646E0,-1.491924882E0,9.745368004E0,1.066307883E1
4.975610450E-1,-4.162913322E0,-1.587637782E0,9.740582466E0,1.071118051E1
5.000345340E-1,-4.182055950E0,-1.865205288E0,9.836296082E0,1.084994485E1
5.025081280E-1,-4.320839405E0,-2.008774519E0,9.879366875E0,1.096844192E1
5.049816180E-1,-4.564907551E0,-2.008774519E0,9.850652695E0,1.104123700E1
5.074551070E-1,-4.842474937E0,-2.056631088E0,9.620942116E0,1.096548322E1
5.099285970E-1,-5.067998409E0,-2.148156643E0,9.328418732E0,1.083137022E1
5.124020870E-1,-5.235496044E0,-2.172084808E0,9.041280746E0,1.067113531E1
5.148755240E-1,-5.359922886E0,-2.157727718E0,8.782855988E0,1.051299774E1
5.173490140E-1,-5.455635548E0,-2.186441660E0,8.490332603E0,1.032619165E1
5.198225030E-1,-5.316852093E0,-2.444866419E0,8.294121742E0,1.015080014E1
5.222961490E-1,-5.426921844E0,-2.061416626E0,7.581060410E0,9.548476116E0
5.247696390E-1,-5.465207100E0,-1.855633974E0,7.317251682E0,9.319551399E0
5.272431280E-1,-5.422136307E0,-2.023131609E0,7.077969551E0,9.142771823E0
5.297166180E-1,-5.450850010E0,-2.176870346E0,6.891329288E0,9.052124043E0
5.321901070E-1,-5.450850010E0,-2.368296146E0,6.781259537E0,9.016988043E0
5.346635970E-1,-5.469992638E0,-2.483151674E0,6.695117950E0,8.995080103E0
5.371370340E-1,-5.618347645E0,-2.487937450E0,6.580262184E0,9.003083551E0
5.396105760E-1,-5.714060307E0,-2.449652195E0,6.436094761E0,8.948441028E0
5.420655760E-1,-5.843272686E0,-2.382653236E0,6.373881340E0,8.969238288E0
5.445205760E-1,-5.785845280E0,-2.306082726E0,6.647261143E0,9.109341570E0
5.469755760E-1,-5.063212872E0,-2.330011129E0,7.101897717E0,9.027847342E0
5.494305760E-1,-5.024927616E0,-2.636292458E0,6.800402164E0,8.856941067E0
5.518935970E-1,-5.867201328E0,-2.899502754E0,6.738188744E0,9.393314388E0
5.543651590E-1,-6.667002201E0,-2.966501951E0,7.168896675E0,1.022947368E1
5.568367220E-1,-7.150950432E0,-2.779861689E0,7.513463020E0,1.073852176E1
5.593082840E-1,-7.505088329E0,-2.090728760E0,7.345965385E0,1.070797390E1
5.618532840E-1,-7.854440212E0,-1.994417667E0,7.557132244E0,1.108062185E1
5.643458890E-1,-8.185248375E0,-1.946561217E0,7.470392227E0,1.125140665E1
5.668197950E-1,-8.615956306E0,-1.692921996E0,7.533204079E0,1.156934966E1
5.692936490E-1,-8.960522652E0,-1.568495274E0,7.892127514E0,1.204312336E1
5.717676070E-1,-9.214759827E0,-1.444068432E0,8.274978638E0,1.246885736E1
5.742414620E-1,-9.449256897E0,-1.405783296E0,8.830712318E0,1.300946435E1
5.767153680E-1,-9.564111710E0,-1.453639746E0,9.471988678E0,1.353897599E1
5.791892220E-1,-9.726823807E0,-1.501496196E0,1.007079220E1,1.408142208E1
5.816599510E-1,-9.659825325E0,-2.133799553E0,1.092802143E1,1.474065732E1
5.841338050E-1,-9.693324089E0,-2.282154560E0,1.078445148E1,1.467900389E1
5.866076590E-1,-1.025384331E1,-1.176072359E0,9.975079536E0,1.435362883E1
5.890814620E-1,-1.077069283E1,-4.193421602E-1,9.740582466E0,1.452799431E1
5.915552120E-1,-1.111047363E1,-6.041877344E-2,9.692726135E0,1.474432822E1
5.940290660E-1,-1.116311550E1,-2.997010350E-1,1.031486034E1,1.520201672E1
5.965028680E-1,-1.124985600E1,-4.863412082E-1,1.077009487E1,1.558174352E1
5.989767220E-1,-1.141735363E1,-6.059823632E-1,1.107637596E1,1.591883422E1
6.014480760E-1,-1.166142082E1,-7.543373108E-1,1.121994495E1,1.620015201E1
6.039218260E-1,-1.189113235E1,-8.979067206E-1,1.128694439E1,1.641951214E1
6.063955760E-1,-1.210170078E1,-1.017547846E0,1.113858986E1,1.647891834E1
6.088693260E-1,-1.212084293E1,-1.400997639E0,1.113380337E1,1.651784505E1
6.113430760E-1,-1.249950695E1,-8.931210637E-1,1.011386299E1,1.610358854E1
6.138168260E-1,-1.283450222E1,-3.906283081E-1,9.582057953E0,1.602163763E1
6.162905760E-1,-1.303071404E1,-3.858426511E-1,9.510273933E0,1.613671878E1
6.187643260E-1,-1.290628719E1,-9.601200819E-1,9.908080101E0,1.629920645E1
6.212360450E-1,-1.285843086E1,-1.496710539E0,1.013779163E1,1.644245133E1
6.237097430E-1,-1.275314617E1,-1.951346874E0,1.013779163E1,1.640808676E1
6.261834410E-1,-1.271007538E1,-2.344367981E0,9.874580383E0,1.626497510E1
6.286571390E-1,-1.248036480E1,-2.736790895E0,9.702297211E0,1.604319485E1
6.311308370E-1,-1.207298660E1,-3.129812002E0,9.242277145E0,1.552328623E1
6.336045340E-1,-1.147956657E1,-3.531806231E0,8.749356270E0,1.485952015E1
6.360782320E-1,-1.080419254E1,-3.857230186E0,8.255836487E0,1.413391797E1
6.385519300E-1,-1.002353382E1,-4.091726780E0,7.825128078E0,1.335837145E1
6.410240660E-1,-9.200403214E0,-4.231108665E0,7.436892986E0,1.256411864E1
6.434977640E-1,-8.443673134E0,-4.278964996E0,7.106683254E0,1.183681141E1
6.459714620E-1,-7.787441254E0,-4.341178417E0,6.781259537E0,1.120158704E1
6.484451070E-1,-7.179664135E0,-4.312464714E0,6.402595043E0,1.054220813E1
6.509187010E-1,-6.724429607E0,-4.245465755E0,6.081956863E0,1.001159989E1
6.533923990E-1,-6.499504566E0,-4.173680782E0,5.823532104E0,9.673504900E0
6.558660970E-1,-6.418148518E0,-4.039084435E0,5.746961594E0,9.514956701E0
6.583397430E-1,-6.403791428E0,-3.929014683E0,5.861817360E0,9.529249907E0
6.608121390E-1,-6.676573277E0,-3.699303865E0,5.790032387E0,9.580498674E0
6.632857840E-1,-7.079165936E0,-3.479164124E0,6.139384747E0,9.995559935E0
6.657593780E-1,-7.533802032E0,-3.292523861E0,6.182455540E0,1.028696471E1
6.682330240E-1,-8.079963684E0,-2.976073265E0,6.172883987E0,1.059468366E1
6.707066700E-1,-8.596813202E0,-2.770290375E0,6.297310829E0,1.101071431E1
6.731802640E-1,-9.166903496E0,-2.545365095E0,6.522834301E0,1.153509300E1
6.756539090E-1,-9.659825325E0,-2.363510609E0,6.943971157E0,1.212918559E1
6.781275550E-1,-1.022512913E1,-2.186441660E0,7.188039303E0,1.268864460E1
6.806001590E-1,-1.070847988E1,-1.989632010E0,7.460821152E0,1.320204640E1
6.830737530E-1,-1.123549843E1,-1.941775560E0,7.705487251E0,1.376159333E1
6.855473470E-1,-1.167099285E1,-1.889133453E0,7.695915699E0,1.410702016E1
6.880209410E-1,-1.213520050E1,-1.869990945E0,7.561917782E0,1.442021352E1
6.904945870E-1,-1.255693531E1,-1.855633974E0,7.700701237E0,1.484657541E1
6.929681800E-1,-1.289671612E1,-1.783849239E0,7.944769382E0,1.525210691E1
6.954417740E-1,-1.320299721E1,-1.582852125E0,7.748558044E0,1.539040961E1
6.979153680E-1,-1.337587833E1,-1.381855130E0,7.724629879E0,1.550785451E1
7.003881280E-1,-1.337587833E1,-1.266999602E0,7.667201996E0,1.546949888E1
7.028617220E-1,-1.320299721E1,-1.372283816E0,7.705487251E0,1.534851237E1
7.053352640E-1,-1.289193058E1,-1.439282775E0,7.571488857E0,1.502001506E1
7.078088570E-1,-1.252343559E1,-1.592423439E0,7.456035137E0,1.466167492E1
7.102824510E-1,-1.207777214E1,-1.841277003E0,7.288537979E0,1.422623164E1
7.127560450E-1,-1.163749313E1,-1.989632010E0,7.235895634E0,1.384731265E1
